# column   1     --> step : The current simulation time step.
# column   2     --> potential : The physical system potential energy.
    0.00000000e+00    -3.28285051e-01   
    1.00000000e+00    -3.38322966e-01   
    2.00000000e+00    -3.44364662e-01   
    3.00000000e+00    -3.46221015e-01   
    4.00000000e+00    -3.47387933e-01   
    5.00000000e+00    -3.48082143e-01   
    6.00000000e+00    -3.48699501e-01   
    7.00000000e+00    -3.48997954e-01   
    8.00000000e+00    -3.48904241e-01   
    9.00000000e+00    -3.48930139e-01   
    1.00000000e+01    -3.48943475e-01   
    1.10000000e+01    -3.48944021e-01   
    1.20000000e+01    -3.48947298e-01   
    1.30000000e+01    -3.48946998e-01   
    1.40000000e+01    -3.48947469e-01   
    1.50000000e+01    -3.48947420e-01   
    1.60000000e+01    -3.48947479e-01   
    1.70000000e+01    -3.48947473e-01   
