# column   1     --> step : The current simulation time step.
# column   2     --> potential{electronvolt} : The physical system potential energy.
    0.00000000e+00     1.05496586e-02   
    1.00000000e+00     6.11870260e-03   
    2.00000000e+00     2.31914801e-03   
    3.00000000e+00     1.17898359e-03   
    4.00000000e+00     8.81686463e-04   
    5.00000000e+00     7.20212198e-04   
    6.00000000e+00     4.33672380e-04   
    7.00000000e+00     2.51849958e-04   
    8.00000000e+00     1.83759061e-04   
    9.00000000e+00     1.64321044e-04   
    1.00000000e+01     1.42379333e-04   
    1.10000000e+01     1.01751791e-04   
    1.20000000e+01     5.74704666e-05   
    1.30000000e+01     3.35503320e-05   
    1.40000000e+01     2.83321798e-05   
    1.50000000e+01     2.73924488e-05   
    1.60000000e+01     2.67691512e-05   
    1.70000000e+01     2.58838285e-05   
    1.80000000e+01     2.54762707e-05   
    1.90000000e+01     2.52269262e-05   
    2.00000000e+01     2.49448470e-05   
    2.10000000e+01     2.43572392e-05   
    2.20000000e+01     2.22973583e-05   
    2.30000000e+01     1.96066331e-05   
    2.40000000e+01     1.53608831e-05   
    2.50000000e+01     1.36283436e-05   
    2.60000000e+01     1.29677073e-05   
    2.70000000e+01     1.28493255e-05   
    2.80000000e+01     1.21951981e-05   
    2.90000000e+01     1.11663883e-05   
    3.00000000e+01     6.71610119e-06   
    3.10000000e+01     5.63337661e-06   
    3.20000000e+01     3.82625174e-06   
    3.30000000e+01     2.73502215e-06   
    3.40000000e+01     1.96833422e-06   
    3.50000000e+01     1.42132422e-06   
    3.60000000e+01     1.00309747e-06   
    3.70000000e+01     6.34460755e-07   
    3.80000000e+01     2.42884396e-07   
    3.90000000e+01     8.87593395e-08   
    4.00000000e+01     6.86781635e-08   
    4.10000000e+01     3.47493673e-08   
    4.20000000e+01     1.43851290e-08   
    4.30000000e+01     2.63959383e-09   
    4.40000000e+01     5.33873901e-09   
    4.50000000e+01     1.86233283e-09   
    4.60000000e+01     2.66588923e-09   
    4.70000000e+01     2.41298938e-09   
    4.80000000e+01     2.27532524e-09   
    4.90000000e+01     1.46712848e-09   
    5.00000000e+01     2.50347648e-09   
    5.10000000e+01     1.07965807e-09   
    5.20000000e+01     1.15622408e-09   
    5.30000000e+01     1.17865251e-09   
    5.40000000e+01     1.26140567e-09   
